t	h-slip	h-slip-rate	h-shear-stress	v-slip	v-slip-rate	v-shear-stress

0	0	0.0778449401259422	81.2399978637695	0	0	0
0.00999999977648258	0.000817109947092831	0.0859471783041954	81.2027435302734	-1.55948790691542e-25	1.45322163667838e-21	1.37300111642012e-18
0.0199999995529652	0.00171968841459602	0.0949555635452271	81.1615829467773	3.82222748060677e-22	3.28753305559883e-20	2.80996033411122e-17
0.0299999993294477	0.00271649984642863	0.104846373200417	81.1161270141602	8.99525089795802e-22	4.19081396138931e-20	3.24229223696247e-17
0.0399999991059303	0.00381624163128436	0.115627437829971	81.0659790039062	8.42974996270746e-22	-9.50183258212587e-21	-6.66170071755703e-18
0.0500000007450581	0.00502896402031183	0.127491697669029	81.0106811523438	1.01385534449998e-21	-2.01132688255025e-19	-1.2780357362973e-16
0.0599999986588955	0.00636659050360322	0.140635266900063	80.9496841430664	-6.05751572130167e-22	-8.99142482411785e-20	-5.17546560631361e-17
0.0700000002980232	0.00784204248338938	0.155136376619339	80.8824005126953	1.44604166453277e-21	3.89148902783768e-19	2.02887935736361e-16
0.0799999982118607	0.00946964882314205	0.17116142809391	80.8081817626953	2.19877632487862e-21	-2.22420052072107e-19	-1.05008242805557e-16
0.0900000035762787	0.0112659940496087	0.188940867781639	80.7262725830078	-2.99458425477537e-21	-1.8474103166743e-19	-7.89318636857454e-17
0.100000001490116	0.0132489027455449	0.208549365401268	80.6358489990234	3.40252788207054e-21	1.77677994910781e-19	6.86993946630032e-17
0.109999999403954	0.0154369547963142	0.23008219897747	80.5360717773438	8.7037131509373e-21	-7.57436000326218e-19	-2.65126659386076e-16
0.119999997317791	0.0178510695695877	0.253847718238831	80.4259948730469	-2.54395641150597e-21	-9.58222668591255e-19	-3.03591510781857e-16
0.129999995231628	0.020514864474535	0.280113160610199	80.3045196533203	1.24877494138763e-21	9.77147940621009e-19	2.80134653843323e-16
0.140000000596046	0.0234537851065397	0.309044897556305	80.1705093383789	1.03251802142037e-20	1.02109470239746e-18	2.64886049089496e-16
0.150000005960464	0.0266962461173534	0.340990781784058	80.0226516723633	3.67677177856489e-21	-1.58441710725526e-18	-3.7182604979294e-16
0.159999996423721	0.0302746258676052	0.376343876123428	79.8594741821289	-2.65307579185817e-22	2.12461236936669e-18	4.50838844829818e-16
0.170000001788139	0.0342237874865532	0.41530242562294	79.6793975830078	5.21667269420249e-20	4.37980967408559e-18	8.40304752796023e-16
0.180000007152557	0.0385812595486641	0.458209216594696	79.4806976318359	7.12827933499429e-20	4.2965019881499e-19	7.45268688435495e-17
0.189999997615814	0.0433896221220493	0.505650639533997	79.2614364624023	5.66580397872008e-20	-5.46231074964138e-18	-8.56224737039667e-16
0.200000002980232	0.0486956760287285	0.557978510856628	79.0194778442383	-1.48976456167022e-20	-3.29631515461412e-18	-4.66815633220488e-16
0.209999993443489	0.054549366235733	0.615554213523865	78.7525482177734	1.7259884422459e-20	5.48245466550857e-18	7.01412260572203e-16
0.219999998807907	0.06100844591856	0.679336905479431	78.4580154418945	9.27010391119153e-20	4.64758375480064e-18	5.36759008263097e-16
0.230000004172325	0.0681386068463326	0.749780535697937	78.1328811645508	1.48476852001737e-19	3.85151712739849e-18	4.01357615270945e-16
0.239999994635582	0.0759981498122215	0.825244843959808	77.7744827270508	1.60935730065737e-19	-1.22146874195368e-17	-1.1511626680648e-15
0.25	0.0846233516931534	0.903262913227081	77.3811721801758	-5.34886229531957e-20	-1.02836094641134e-17	-8.80981339565983e-16
0.259999990463257	0.094037838280201	0.983578622341156	76.9518737792969	4.65255102607781e-20	1.8528465218106e-17	1.4496046685136e-15
0.270000010728836	0.104277648031712	1.06865036487579	76.4849395751953	1.55016348054125e-19	6.97673824411214e-18	4.99335822103981e-16
0.280000001192093	0.11540512740612	1.16134822368622	75.9775238037109	7.19137576739104e-20	-1.60978330384272e-17	-1.05314962700181e-15
0.28999999165535	0.127504751086235	1.263392329216	75.42578125	-5.67258298233389e-20	2.4829794775637e-18	1.48236350892999e-16
0.300000011920929	0.140674322843552	1.37572073936462	74.8252487182617	2.47565334567347e-20	-4.6540518936005e-18	-2.53133202248547e-16
0.310000002384186	0.155020102858543	1.49907040596008	74.1710815429688	-1.02570964643247e-19	-9.56268599150706e-18	-4.73143075215596e-16
0.319999992847443	0.170654907822609	1.6341392993927	73.458137512207	6.77968539158399e-20	5.25098595546878e-18	2.36043306686066e-16
0.330000013113022	0.18769970536232	1.78176748752594	72.6808929443359	1.10995010775578e-19	-7.70161398568522e-18	-3.14160073213647e-16
0.340000003576279	0.20628522336483	1.94293880462646	71.8333969116211	1.54905880668258e-19	-2.13947237955799e-17	-7.90995365046324e-16
0.349999994039536	0.226551964879036	2.11870360374451	70.9092330932617	1.9211896574352e-19	-5.47264248364635e-17	-1.8315958812972e-15
0.360000014305115	0.248652577400208	2.31044149398804	69.9014434814453	9.6635478459084e-20	4.59017609680048e-17	1.3887385749898e-15
0.370000004768372	0.27275624871254	2.52004981040955	68.8023147583008	1.16719227276476e-18	1.3104462608839e-16	3.57777568964386e-15
0.379999995231628	0.299051135778427	2.74949026107788	67.603271484375	1.59973411405548e-18	5.29519338253576e-17	1.30195909663153e-15
0.389999985694885	0.327741712331772	3.00018978118896	66.2949752807617	1.69209958279499e-18	-1.57094184704021e-16	-3.47129877773455e-15
0.400000005960464	0.359044253826141	3.27303409576416	64.8675842285156	2.14676976724505e-21	-1.67560282618972e-16	-3.3208422211379e-15
0.409999996423721	0.393182992935181	3.56854176521301	63.3108558654785	-5.42366818014535e-20	1.07424827804074e-16	1.90586478890364e-15
0.419999986886978	0.428963214159012	3.588454246521	63	-5.60129616940316e-20	1.69575056363135e-16	2.97711159246089e-15
0.430000007152557	0.464585691690445	3.53600978851318	63	-3.04233875670918e-19	-1.32372614931008e-16	-2.35844211591814e-15
0.439999997615814	0.499664306640625	3.47933840751648	63	-3.03740162582558e-18	-3.11475190529088e-16	-5.63984690654835e-15
0.449999988079071	0.534153997898102	3.4182665348053	63	-2.86724809228159e-18	5.22442014019796e-17	9.62881219933797e-16
0.46000000834465	0.56801700592041	3.35431432723999	63	-8.50755208312001e-19	2.64949788318777e-16	4.97622920314308e-15
0.469999998807907	0.60123735666275	3.28928709030151	63	1.9090083630902e-18	6.79608414900015e-17	1.30165988224292e-15
0.479999989271164	0.633793115615845	3.22156357765198	63	1.58564340251337e-18	-6.59220728906298e-17	-1.28915365253494e-15
0.490000009536743	0.665636599063873	3.14762020111084	63	1.34381704703591e-18	-1.70306191380403e-16	-3.40869923128419e-15
0.5	0.696711421012878	3.06895017623901	63	6.38569991205983e-19	-2.28770258284467e-16	-4.69623949781285e-15
0.509999990463257	0.727018654346466	2.99302458763123	63	-4.51922579645257e-19	7.25069268749195e-17	1.52619412875817e-15
0.519999980926514	0.756600677967072	2.92212796211243	63	2.0602601992519e-18	3.88095196899311e-16	8.36718881165469e-15
0.529999971389771	0.785470545291901	2.85137987136841	63	3.90267824828489e-18	7.03627754655085e-17	1.554634848149e-15
0.540000021457672	0.813624143600464	2.78016519546509	63	1.59001277730402e-18	-2.83940902270929e-16	-6.43424988514148e-15
0.550000011920929	0.841091692447662	2.71365237236023	63	9.30434854231637e-20	1.18861261517109e-16	2.75947642930103e-15
0.560000002384186	0.867929458618164	2.65348219871521	63	2.25382914798574e-18	1.18965909790764e-16	2.82453470063903e-15
0.569999992847443	0.894176065921783	2.5956437587738	63	4.58830416639476e-19	-1.52158761948386e-16	-3.69311150739027e-15
0.579999983310699	0.919836640357971	2.53644967079163	63	-1.16104094413951e-18	-2.84621413834709e-16	-7.06938864679417e-15
0.589999973773956	0.944892168045044	2.47409582138062	63	-4.16780741899131e-18	-2.52622414911573e-16	-6.43273877836358e-15
0.600000023841858	0.96929794549942	2.40692019462585	63	-3.92111858568054e-18	5.75301204354875e-17	1.50582372753053e-15
0.610000014305115	0.993013858795166	2.33683586120605	63	-2.58008158928584e-18	2.51012522916198e-16	6.76717957319157e-15
0.620000004768372	1.01603996753693	2.26822018623352	63	-8.41807078638132e-19	2.73887229991951e-16	7.60724016874055e-15
0.629999995231628	1.03838431835175	2.19996094703674	63	2.14971691321676e-19	3.50389538487175e-17	1.00340602898752e-15
0.639999985694885	1.06002390384674	2.12875604629517	63	2.21047604339516e-19	-1.39599526506761e-16	-4.13141294111174e-15
0.649999976158142	1.08094549179077	2.05692005157471	63	-5.98056701055879e-19	-2.1069109110532e-17	-6.45311362651419e-16
0.660000026226044	1.10116529464722	1.9872442483902	63	3.40622714039862e-19	1.69360651148361e-16	5.36910425990331e-15
0.670000016689301	1.1206933259964	1.91752731800079	63	1.20620242064549e-18	5.87744846268979e-17	1.93102463205241e-15
0.680000007152557	1.13951528072357	1.8462347984314	63	2.33219872076085e-18	-1.50463107867101e-16	-5.13432832626457e-15
0.689999997615814	1.15762996673584	1.77640163898468	63	1.39629793458964e-18	-7.40706406854183e-18	-2.62691174964923e-16
0.699999988079071	1.17506659030914	1.71072638034821	63	9.24313846945715e-20	-1.56869919496345e-16	-5.77696375301693e-15
0.709999978542328	1.19186294078827	1.6494574546814	63	-2.65245079389749e-18	-2.18819513743471e-16	-8.35767493759113e-15
0.720000028610229	1.20807981491089	1.59486079216003	63	-3.38115824286307e-18	2.82213696212359e-16	1.11479717194692e-14
0.730000019073486	1.22379553318024	1.54682588577271	63	-2.11296918185954e-18	1.95638339559489e-16	7.96806858097436e-15
0.740000009536743	1.23901903629303	1.49639844894409	63	-2.80378390055438e-18	-2.17632502947012e-16	-9.16256460758774e-15
0.75	1.25368368625641	1.43790805339813	63	-5.19904563044535e-18	-1.75704941158186e-16	-7.69827503474671e-15
0.759999990463257	1.26774990558624	1.37796366214752	63	-5.184901255561e-18	2.11799489965084e-16	9.68339584949199e-15
0.769999980926514	1.28126549720764	1.32753813266754	63	-3.45054773611316e-18	2.92058019004467e-16	1.38599814811973e-14
0.779999971389771	1.29437601566315	1.2948876619339	63	-2.89753469002476e-18	-1.49133504367929e-16	-7.2557731646398e-15
0.790000021457672	1.30726361274719	1.28023242950439	63	-4.92587833213645e-18	-2.63429020071321e-16	-1.29632929214761e-14
0.800000011920929	1.32005596160889	1.27463710308075	63	-5.7197703017082e-18	-4.68101839516003e-18	-2.31363237894249e-16
0.810000002384186	1.33277523517609	1.26706194877625	63	-4.38805955992488e-18	5.02689860816871e-16	2.4994407449774e-14
0.819999992847443	1.34535932540894	1.24976015090942	63	-5.3830741300256e-21	5.25396008336121e-16	2.64850414413405e-14
0.829999983310699	1.35770666599274	1.22139084339142	63	2.09486721303322e-19	-1.87261064597135e-16	-9.65902671159948e-15
0.839999973773956	1.36973702907562	1.18622481822968	63	-3.38758626340322e-18	-1.91509252464971e-16	-1.01709912126119e-14
0.850000023841858	1.38140511512756	1.14799833297729	63	-3.30468125932948e-18	1.68310886159138e-16	9.23658681684829e-15
0.860000014305115	1.39269208908081	1.10978996753693	63	-3.54042235723311e-18	7.29199679332692e-17	4.13948431806613e-15
0.870000004768372	1.40362191200256	1.075159907341	63	-3.74855878373463e-18	-4.14082220660632e-16	-2.42635366009061e-14
0.879999995231628	1.41422200202942	1.04233598709106	63	-8.6248856884567e-18	-1.19023441856729e-16	-7.19391604256771e-15
0.889999985694885	1.42445909976959	1.00359618663788	63	-7.1950320349455e-18	4.10678021715396e-16	2.57800067914298e-14
0.899999976158142	1.43423664569855	0.953593969345093	63	-5.21125522987694e-18	1.3439801629168e-16	8.87912027838214e-15
0.910000026226044	1.44346249103546	0.894341051578522	63	-5.23258532274254e-18	-2.17097350177915e-16	-1.52929731866373e-14
0.920000016689301	1.4520868062973	0.831122398376465	63	-6.52866484604982e-18	1.67445741265191e-17	1.26925737799953e-15
0.930000007152557	1.46007263660431	0.764694690704346	63	-4.92394521104491e-18	3.33396085566674e-16	2.74671117691779e-14
0.939999997615814	1.46736514568329	0.695470631122589	63	-2.74379035188228e-18	9.58657993068126e-17	8.68411296513346e-15
0.949999988079071	1.47400796413422	0.639852941036224	63	-2.1975756964533e-18	5.94709971724472e-17	5.85552182371003e-15
0.959999978542328	1.48031163215637	0.626434206962585	63	-2.15983992370379e-18	-7.1087650379901e-17	-7.14922912536942e-15
0.970000028610229	1.48679292201996	0.666088879108429	63	-4.45085745766869e-18	-2.83363252270681e-16	-2.6801054187368e-14
0.980000019073486	1.49384999275208	0.732817053794861	63	-5.07805557660844e-18	-4.06856692130863e-17	-3.49773128788657e-15
0.990000009536743	1.50146305561066	0.778042256832123	63	-3.61440663199078e-18	2.7835382001128e-16	2.25389944609553e-14
1	1.50920271873474	0.766470909118652	63	-7.35290824364525e-19	3.01224212512959e-16	2.47590949207632e-14
1.00999999046326	1.51650738716125	0.699797332286835	63	7.97919718769424e-19	-7.76882671179434e-17	-6.99396883317065e-15
1.01999998092651	1.52298533916473	0.605971217155457	63	-1.14242390028551e-18	-2.23524742060799e-16	-2.32388249404381e-14
1.02999997138977	1.5285336971283	0.516418039798737	63	-2.45021981658415e-18	-8.0617080402061e-18	-9.83481590606614e-16
1.03999996185303	1.5333479642868	0.457479298114777	63	-2.40446845690384e-18	4.47914397404973e-17	6.16828069267068e-15
1.04999995231628	1.5378634929657	0.445927232503891	63	-2.43406373845007e-18	6.79427295433091e-18	9.59885793794951e-16
1.05999994277954	1.54256558418274	0.478996723890305	63	-2.02235878358472e-18	7.19415720872966e-17	9.46210764498885e-15
1.07000005245209	1.5477192401886	0.529793083667755	63	-6.87894150747061e-19	2.11210590308506e-16	2.51159685361662e-14
1.08000004291534	1.55321907997131	0.560043513774872	63	9.40833057368706e-19	8.23683954667644e-17	9.26572390320089e-15
1.0900000333786	1.55870985984802	0.548139333724976	63	-3.59971063103543e-19	-2.60360722629231e-16	-2.99243729838874e-14
1.10000002384186	1.56387996673584	0.506104409694672	63	-2.66305835127772e-18	-2.65570239952641e-16	-3.30582491990614e-14
1.11000001430511	1.56865894794464	0.463016241788864	63	-4.06652949274185e-18	-8.81339038932631e-17	-1.1991881656247e-14
1.12000000476837	1.57316195964813	0.437467575073242	63	-4.01803644292123e-18	2.30316414359284e-17	3.31680208573773e-15
1.12999999523163	1.57755720615387	0.433330923318863	63	-3.55285901774285e-18	9.61661254261735e-17	1.39811537794667e-14
1.13999998569489	1.58202409744263	0.448149472475052	63	-2.50927782398345e-18	5.92314390496069e-17	8.32664303853552e-15
1.14999997615814	1.58668434619904	0.47206649184227	63	-1.62732937627813e-18	1.25741180752064e-16	1.67808865083772e-14
1.1599999666214	1.59149694442749	0.486218303442001	63	3.81164360975341e-19	1.86663932839101e-16	2.4186312607105e-14
1.16999995708466	1.59625160694122	0.473951190710068	63	1.06706681590374e-18	-8.73383480498892e-17	-1.160945729199e-14
1.17999994754791	1.60073471069336	0.44132074713707	63	-1.3757222045933e-20	-6.23799266890002e-17	-8.90494123074624e-15
1.19000005722046	1.60497319698334	0.418228179216385	63	5.13279735557144e-19	5.104530567448e-17	7.68923380506771e-15
1.20000004768372	1.60922634601593	0.425695776939392	63	2.17684287968876e-19	-1.05885868200586e-16	-1.56703687162864e-14
1.21000003814697	1.61370038986206	0.451288640499115	63	-9.05296447675239e-19	-1.1568791875467e-16	-1.61500604149755e-14
1.22000002861023	1.61834025382996	0.464019984006882	63	-9.4362696328518e-19	5.71861125623389e-17	7.76415895145004e-15
1.23000001907349	1.62288355827332	0.445228457450867	63	-1.81697730796271e-19	6.47349562150529e-17	9.16002096764713e-15
1.24000000953674	1.62707841396332	0.404718697071075	63	-2.34796509342884e-19	-1.20943043508334e-16	-1.88264405828103e-14
1.25	1.63089275360107	0.37239608168602	63	-1.20130747597313e-18	-5.89355002962151e-17	-9.97039602301016e-15
1.25999999046326	1.63459026813507	0.376404911279678	63	-8.93048591140319e-19	1.63824139402642e-16	2.74197304401744e-14
1.26999998092651	1.63861203193665	0.423685789108276	63	4.4761705285813e-19	1.51828577917635e-16	2.25761656548126e-14
1.27999997138977	1.64326333999634	0.4870785176754	63	3.3855008376814e-19	-1.15621545782319e-16	-1.49547902002483e-14
1.28999996185303	1.64836072921753	0.511891961097717	63	-1.71985025157522e-18	-2.20878717012695e-16	-2.7184170577543e-14
1.29999995231628	1.65321040153503	0.459095597267151	63	-2.50003180589148e-18	7.46360037448473e-17	1.02420242426016e-14
1.30999994277954	1.65714883804321	0.353862047195435	63	-1.08914168151336e-18	1.79173104325829e-16	3.18991693140386e-14
1.32000005245209	1.66017401218414	0.275762617588043	63	-4.68255260840117e-19	-1.54484185025954e-17	-3.52930507627018e-15
1.33000004291534	1.66299080848694	0.287719577550888	63	-1.14722547694623e-18	-3.77728916523237e-17	-8.27087354225535e-15
1.3400000333786	1.66641998291016	0.376871734857559	63	-7.64739901737485e-19	9.64544375743176e-18	1.61238671916311e-15
1.35000002384186	1.67074871063232	0.469542682170868	63	-9.39856984245893e-19	6.12739663576821e-17	8.22131872670918e-15
1.36000001430511	1.67561292648315	0.49998950958252	63	1.74033437131872e-19	1.47039056587165e-16	1.85273108974874e-14
1.37000000476837	1.68036460876465	0.457103312015533	63	5.27466917038194e-19	-7.69003147187601e-17	-1.05987420039423e-14
1.37999999523163	1.6844767332077	0.373374611139297	63	-2.36951831826468e-19	-8.17028856505736e-17	-1.37858381462253e-14
1.38999998569489	1.68776059150696	0.29357573390007	63	-2.12106686646613e-19	8.75527929693323e-17	1.87884257441375e-14
1.39999997615814	1.69046604633331	0.258738398551941	63	3.08057311257291e-19	5.10438928499937e-17	1.24286355607738e-14
1.4099999666214	1.69321584701538	0.292028397321701	63	6.63642675677775e-20	-5.50944176386536e-17	-1.18856535602659e-14
1.41999995708466	1.69664478302002	0.377873539924622	63	-1.89045446930609e-19	-1.7430971907538e-17	-2.90613425488748e-15
1.42999994754791	1.70093739032745	0.459928721189499	63	-3.35618258409219e-20	2.27367300408573e-17	3.11442600936442e-15
1.44000005722046	1.70566117763519	0.480330109596252	63	-4.08002080853259e-19	-4.66196098102742e-18	-6.11461861436328e-16
1.45000004768372	1.71014499664307	0.431622743606567	63	-2.52746018442555e-19	-6.66192074759997e-17	-9.72379339184539e-15
1.46000003814697	1.71401572227478	0.359472215175629	63	-4.74962299740638e-19	-3.42236300430648e-18	-5.99792870857157e-16
1.47000002861023	1.71736395359039	0.314072579145432	63	6.03815674652141e-20	2.51540065623659e-17	5.04565710569773e-15
1.48000001907349	1.72052240371704	0.311214357614517	63	-4.36209405030412e-19	-4.48583851218325e-17	-9.08080898751875e-15
1.49000000953674	1.72379434108734	0.336750954389572	63	-7.69786840847401e-19	-5.68088255587861e-17	-1.06279028072175e-14
1.5	1.72735917568207	0.373019754886627	63	-1.37885765855458e-18	-7.26726409301159e-17	-1.22738174197735e-14
1.50999999046326	1.73128819465637	0.409846216440201	63	-1.69260860906444e-18	4.64013879841542e-17	7.13264506729512e-15
1.51999998092651	1.7355250120163	0.435290336608887	63	-8.09828689747138e-19	5.7644721346273e-17	8.34297722189037e-15
1.52999997138977	1.73986649513245	0.435998141765594	63	-8.61950736011388e-19	-6.99896640696879e-17	-1.01132286478068e-14
1.53999996185303	1.74407005310059	0.410737276077271	63	-1.12924463838085e-18	1.44683140323495e-16	2.21918939116977e-14
1.54999995231628	1.74797630310059	0.372797846794128	63	2.62084654913731e-19	1.52799952654568e-16	2.58220280959431e-14
1.55999994277954	1.75154626369476	0.339832425117493	63	7.23339408681629e-19	-8.78384945354632e-17	-1.62839814061341e-14
1.57000005245209	1.75487220287323	0.326550751924515	63	-5.59823277385923e-21	-5.41189599382168e-17	-1.04409329896053e-14
1.58000004291534	1.75820922851562	0.344521284103394	63	2.97545086442661e-19	1.4107290061384e-16	2.57969338978477e-14
1.5900000333786	1.76192367076874	0.395931333303452	63	1.33966646151727e-18	1.34905839013339e-16	2.14660154750209e-14
1.60000002384186	1.76625728607178	0.458320498466492	63	9.26116893885928e-19	-3.54596129096367e-16	-4.87422127941513e-14
